
# version 50001

data_tomo200528_107

loop_ 
_rlnMicrographMovieName #1 
_rlnTomoTiltMovieFrameCount #2 
_rlnTomoNominalStageTiltAngle #3 
_rlnTomoNominalTiltAxisAngle #4 
_rlnMicrographPreExposure #5 
_rlnTomoNominalDefocus #6 
_rlnMicrographName #7 
_rlnMicrographMetadata #8 
_rlnAccumMotionTotal #9 
_rlnAccumMotionEarly #10 
_rlnAccumMotionLate #11 
_rlnCtfImage #12 
_rlnDefocusU #13 
_rlnDefocusV #14 
_rlnCtfAstigmatism #15 
_rlnDefocusAngle #16 
_rlnCtfFigureOfMerit #17 
_rlnCtfMaxResolution #18 
_rlnCtfIceRingDensity #19 
_rlnTomoXTilt #20 
_rlnTomoYTilt #21 
_rlnTomoZRot #22 
_rlnTomoXShiftAngst #23 
_rlnTomoYShiftAngst #24 
_rlnCtfScalefactor #25 
../raw/tomo200528_107_-51.0_May31_00.24.27.tif            8    -50.99360    -91.00000    68.200000     -3.00000 MotionCorr/job002/__/raw/tomo200528_107_-51_0_May31_00_24_27.mrc MotionCorr/job002/__/raw/tomo200528_107_-51_0_May31_00_24_27.star     2.507579     0.000000     2.507579 CtfFind/job003/__/raw/tomo200528_107_-51_0_May31_00_24_27.ctf:mrc 24013.296875 22401.580078  1611.716797    -58.53130     0.025491    25.000000     1.671510     0.000000    -50.99000    -90.54510     9.537168    -19.87772     0.629456 
../raw/tomo200528_107_-48.0_May31_00.24.05.tif            8    -47.99250    -91.00000    66.000000     -3.00000 MotionCorr/job002/__/raw/tomo200528_107_-48_0_May31_00_24_05.mrc MotionCorr/job002/__/raw/tomo200528_107_-48_0_May31_00_24_05.star     1.974866     0.000000     1.974866 CtfFind/job003/__/raw/tomo200528_107_-48_0_May31_00_24_05.ctf:mrc 21833.007812 20866.742188   966.265625    -37.32801     0.021794    11.173266     4.233130     0.000000    -47.99000    -90.54510     -1.81365     -4.21863     0.669260 
../raw/tomo200528_107_-45.0_May31_00.23.53.tif            8    -44.99330    -91.00000    63.800000     -3.00000 MotionCorr/job002/__/raw/tomo200528_107_-45_0_May31_00_23_53.mrc MotionCorr/job002/__/raw/tomo200528_107_-45_0_May31_00_23_53.star     2.057416     0.000000     2.057416 CtfFind/job003/__/raw/tomo200528_107_-45_0_May31_00_23_53.ctf:mrc 33115.417969 31932.328125  1183.089844    -14.02393     0.021466     9.194667     3.024260     0.000000    -44.99000    -90.54510    13.319624   -160.25614     0.707230 
../raw/tomo200528_107_-42.0_May31_00.21.42.tif            8    -41.99320    -91.00000    52.800000     -3.00000 MotionCorr/job002/__/raw/tomo200528_107_-42_0_May31_00_21_42.mrc MotionCorr/job002/__/raw/tomo200528_107_-42_0_May31_00_21_42.star     2.147246     0.000000     2.147246 CtfFind/job003/__/raw/tomo200528_107_-42_0_May31_00_21_42.ctf:mrc 32927.902344 32296.234375   631.667969    -54.50343     0.020782    12.259555     0.667460     0.000000    -41.99000    -90.54510    -14.45746    31.116476     0.743262 
../raw/tomo200528_107_-39.0_May31_00.21.23.tif            8    -38.99250    -91.00000    50.600000     -3.00000 MotionCorr/job002/__/raw/tomo200528_107_-39_0_May31_00_21_23.mrc MotionCorr/job002/__/raw/tomo200528_107_-39_0_May31_00_21_23.star     2.514207     0.000000     2.514207 CtfFind/job003/__/raw/tomo200528_107_-39_0_May31_00_21_23.ctf:mrc 25491.113281 25207.378906   283.734375     -2.17321     0.020923    25.000000     1.527350     0.000000    -38.99000    -90.54510    -11.72665    35.140292     0.777256 
../raw/tomo200528_107_-36.0_May31_00.20.57.tif            8    -35.99140    -91.00000    48.400000     -3.00000 MotionCorr/job002/__/raw/tomo200528_107_-36_0_May31_00_20_57.mrc MotionCorr/job002/__/raw/tomo200528_107_-36_0_May31_00_20_57.star     2.101238     0.000000     2.101238 CtfFind/job003/__/raw/tomo200528_107_-36_0_May31_00_20_57.ctf:mrc 30034.322266 29555.056641   479.265625    -23.16141     0.024842    15.485754     1.682500     0.000000    -35.99000    -90.54510    41.719076    40.282984     0.809120 
../raw/tomo200528_107_-33.0_May31_00.20.34.tif            8    -32.99270    -91.00000    46.200000     -3.00000 MotionCorr/job002/__/raw/tomo200528_107_-33_0_May31_00_20_34.mrc MotionCorr/job002/__/raw/tomo200528_107_-33_0_May31_00_20_34.star     1.623584     0.000000     1.623584 CtfFind/job003/__/raw/tomo200528_107_-33_0_May31_00_20_34.ctf:mrc 31693.958984 30160.537109  1533.421875    79.133553     0.020255    10.897383     4.368910     0.000000    -32.99000    -90.54510    -65.52234   -171.07424     0.838766 
../raw/tomo200528_107_-30.0_May31_00.19.31.tif            8    -29.99260    -91.00000    39.600000     -3.00000 MotionCorr/job002/__/raw/tomo200528_107_-30_0_May31_00_19_31.mrc MotionCorr/job002/__/raw/tomo200528_107_-30_0_May31_00_19_31.star     1.881861     0.000000     1.881861 CtfFind/job003/__/raw/tomo200528_107_-30_0_May31_00_19_31.ctf:mrc 32093.007812 31556.515625   536.492188    -15.63826     0.020251    11.463480     0.568960     0.000000    -29.99000    -90.54510    37.450452   -146.17968     0.866113 
../raw/tomo200528_107_-27.0_May31_00.19.08.tif            8    -26.99140    -91.00000    37.400000     -3.00000 MotionCorr/job002/__/raw/tomo200528_107_-27_0_May31_00_19_08.mrc MotionCorr/job002/__/raw/tomo200528_107_-27_0_May31_00_19_08.star     1.918317     0.000000     1.918317 CtfFind/job003/__/raw/tomo200528_107_-27_0_May31_00_19_08.ctf:mrc 31673.710938 31001.462891   672.248047    -24.74508     0.023158     7.952144     3.658200     0.000000    -26.99000    -90.54510     -7.60629    -62.92428     0.891086 
../raw/tomo200528_107_-24.0_May31_00.17.57.tif            8    -23.99230    -91.00000    30.800000     -3.00000 MotionCorr/job002/__/raw/tomo200528_107_-24_0_May31_00_17_57.mrc MotionCorr/job002/__/raw/tomo200528_107_-24_0_May31_00_17_57.star     1.697119     0.000000     1.697119 CtfFind/job003/__/raw/tomo200528_107_-24_0_May31_00_17_57.ctf:mrc 31358.437500 29207.830078  2150.607422    64.128052     0.026186    10.634795     6.089830     0.000000    -23.99000    -90.54510    -30.90270    79.445368     0.913616 
../raw/tomo200528_107_-21.0_May31_00.17.45.tif            8    -20.99210    -91.00000    28.600000     -3.00000 MotionCorr/job002/__/raw/tomo200528_107_-21_0_May31_00_17_45.mrc MotionCorr/job002/__/raw/tomo200528_107_-21_0_May31_00_17_45.star     1.919050     0.000000     1.919050 CtfFind/job003/__/raw/tomo200528_107_-21_0_May31_00_17_45.ctf:mrc 32090.488281 30359.730469  1730.757812    -18.93306     0.018624    12.980706     2.238780     0.000000    -20.99000    -90.54510    24.761812    41.555296     0.933643 
../raw/tomo200528_107_-18.0_May31_00.16.28.tif            8    -17.99100    -91.00000    22.000000     -3.00000 MotionCorr/job002/__/raw/tomo200528_107_-18_0_May31_00_16_28.mrc MotionCorr/job002/__/raw/tomo200528_107_-18_0_May31_00_16_28.star     2.138721     0.000000     2.138721 CtfFind/job003/__/raw/tomo200528_107_-18_0_May31_00_16_28.ctf:mrc 30980.386719 29664.351562  1316.035156    -28.24077     0.024562     9.491269     6.506850     0.000000    -17.99000    -90.54510    -28.33739    16.055612     0.951110 
../raw/tomo200528_107_-15.0_May31_00.16.15.tif            8    -14.99130    -91.00000    19.800000     -3.00000 MotionCorr/job002/__/raw/tomo200528_107_-15_0_May31_00_16_15.mrc MotionCorr/job002/__/raw/tomo200528_107_-15_0_May31_00_16_15.star     1.867401     0.000000     1.867401 CtfFind/job003/__/raw/tomo200528_107_-15_0_May31_00_16_15.ctf:mrc 30517.896484 30187.144531   330.751953    57.878517     0.027967     7.675548     1.382470     0.000000    -14.99000    -90.54510     5.201308   102.488352     0.965971 
../raw/tomo200528_107_-12.0_May31_00.14.59.tif            8    -11.99120    -91.00000    13.200000     -3.00000 MotionCorr/job002/__/raw/tomo200528_107_-12_0_May31_00_14_59.mrc MotionCorr/job002/__/raw/tomo200528_107_-12_0_May31_00_14_59.star     1.924177     0.000000     1.924177 CtfFind/job003/__/raw/tomo200528_107_-12_0_May31_00_14_59.ctf:mrc 30597.599609 30174.507812   423.091797    -25.53507     0.045169     6.216113     3.004180     0.000000    -11.99000    -90.54510    -17.49860    37.083240     0.978184 
../raw/tomo200528_107_-9.0_May31_00.14.40.tif            8     -8.99102    -91.00000    11.000000     -3.00000 MotionCorr/job002/__/raw/tomo200528_107_-9_0_May31_00_14_40.mrc MotionCorr/job002/__/raw/tomo200528_107_-9_0_May31_00_14_40.star     2.043660     0.000000     2.043660 CtfFind/job003/__/raw/tomo200528_107_-9_0_May31_00_14_40.ctf:mrc 30758.089844 30192.785156   565.304688    30.080853     0.036622     7.742877     4.107880     0.000000     -8.99000    -90.54510    -18.04511    47.187604     0.987716 
../raw/tomo200528_107_-6.0_May31_00.13.16.tif            8     -5.99087    -91.00000     4.400000     -3.00000 MotionCorr/job002/__/raw/tomo200528_107_-6_0_May31_00_13_16.mrc MotionCorr/job002/__/raw/tomo200528_107_-6_0_May31_00_13_16.star     1.720566     0.000000     1.720566 CtfFind/job003/__/raw/tomo200528_107_-6_0_May31_00_13_16.ctf:mrc 31068.300781 30334.824219   733.476562    28.493963     0.035382     6.789908     6.105910     0.000000     -5.99000    -90.54510    12.157648    34.307600     0.994540 
../raw/tomo200528_107_-3.0_May31_00.12.50.tif            8     -2.99071    -91.00000     2.200000     -3.00000 MotionCorr/job002/__/raw/tomo200528_107_-3_0_May31_00_12_50.mrc MotionCorr/job002/__/raw/tomo200528_107_-3_0_May31_00_12_50.star     1.710414     0.000000     1.710414 CtfFind/job003/__/raw/tomo200528_107_-3_0_May31_00_12_50.ctf:mrc 31434.527344 31207.625000   226.902344     2.733182     0.042002     6.896000     4.368160     0.000000     -2.99000    -90.54510    12.357632    47.375520     0.998639 
../raw/tomo200528_107_0.0_May31_00.12.25.tif            8     0.008460    -91.00000     0.000000     -3.00000 MotionCorr/job002/__/raw/tomo200528_107_0_0_May31_00_12_25.mrc MotionCorr/job002/__/raw/tomo200528_107_0_0_May31_00_12_25.star     1.689892     0.832943     0.856950 CtfFind/job003/__/raw/tomo200528_107_0_0_May31_00_12_25.ctf:mrc 33063.156250 32802.414062   260.742188    -48.22010     0.040529     5.807158     4.426570     0.000000     0.010000    -90.54510     -9.36304     3.739356     1.000000 
../raw/tomo200528_107_3.0_May31_00.13.45.tif            8     3.006660    -91.00000     6.600000     -3.00000 MotionCorr/job002/__/raw/tomo200528_107_3_0_May31_00_13_45.mrc MotionCorr/job002/__/raw/tomo200528_107_3_0_May31_00_13_45.star     1.687404     0.000000     1.687404 CtfFind/job003/__/raw/tomo200528_107_3_0_May31_00_13_45.ctf:mrc 31362.593750 31193.765625   168.828125    -41.80921     0.045307     6.442978     3.090510     0.000000     3.010000    -90.54510     0.000000     0.000000     0.998620 
../raw/tomo200528_107_6.0_May31_00.14.12.tif            8     6.009250    -91.00000     8.800000     -3.00000 MotionCorr/job002/__/raw/tomo200528_107_6_0_May31_00_14_12.mrc MotionCorr/job002/__/raw/tomo200528_107_6_0_May31_00_14_12.star     1.519432     0.000000     1.519432 CtfFind/job003/__/raw/tomo200528_107_6_0_May31_00_14_12.ctf:mrc 31011.164062 30629.984375   381.179688     -4.44485     0.032017     5.769203     4.353410     0.000000     6.010000    -90.54510     -0.97061    -32.70945     0.994504 
../raw/tomo200528_107_9.0_May31_00.15.29.tif            8     9.006960    -91.00000    15.400000     -3.00000 MotionCorr/job002/__/raw/tomo200528_107_9_0_May31_00_15_29.mrc MotionCorr/job002/__/raw/tomo200528_107_9_0_May31_00_15_29.star     1.387599     0.000000     1.387599 CtfFind/job003/__/raw/tomo200528_107_9_0_May31_00_15_29.ctf:mrc 31166.060547 30905.615234   260.445312    -39.72199     0.045062     7.294942     5.645830     0.000000     9.010000    -90.54510    -15.95045    -42.48798     0.987661 
../raw/tomo200528_107_12.0_May31_00.15.50.tif            8    12.008600    -91.00000    17.600000     -3.00000 MotionCorr/job002/__/raw/tomo200528_107_12_0_May31_00_15_50.mrc MotionCorr/job002/__/raw/tomo200528_107_12_0_May31_00_15_50.star     1.339977     0.000000     1.339977 CtfFind/job003/__/raw/tomo200528_107_12_0_May31_00_15_50.ctf:mrc 30863.488281 30270.964844   592.523438    -24.98944     0.039216     7.235147     3.925220     0.000000    12.010000    -90.54510    -15.08328    -42.38799     0.978111 
../raw/tomo200528_107_15.0_May31_00.16.50.tif            8    15.006300    -91.00000    24.200000     -3.00000 MotionCorr/job002/__/raw/tomo200528_107_15_0_May31_00_16_50.mrc MotionCorr/job002/__/raw/tomo200528_107_15_0_May31_00_16_50.star     1.948747     0.000000     1.948747 CtfFind/job003/__/raw/tomo200528_107_15_0_May31_00_16_50.ctf:mrc 30469.888672 30228.898438   240.990234    31.616282     0.028301     9.099876     5.606470     0.000000    15.010000    -90.54510    -12.50072    -52.87336     0.965881 
../raw/tomo200528_107_18.0_May31_00.17.19.tif            8    18.006000    -91.00000    26.400000     -3.00000 MotionCorr/job002/__/raw/tomo200528_107_18_0_May31_00_17_19.mrc MotionCorr/job002/__/raw/tomo200528_107_18_0_May31_00_17_19.star     1.878197     0.000000     1.878197 CtfFind/job003/__/raw/tomo200528_107_18_0_May31_00_17_19.ctf:mrc 31611.832031 30522.597656  1089.234375    63.395622     0.035621     7.675548     2.390130     0.000000    18.010000    -90.54510     -7.80972    -57.32472     0.951003 
../raw/tomo200528_107_21.0_May31_00.18.23.tif            8    21.004200    -91.00000    33.000000     -3.00000 MotionCorr/job002/__/raw/tomo200528_107_21_0_May31_00_18_23.mrc MotionCorr/job002/__/raw/tomo200528_107_21_0_May31_00_18_23.star     1.788701     0.000000     1.788701 CtfFind/job003/__/raw/tomo200528_107_21_0_May31_00_18_23.ctf:mrc 30805.947266 30222.228516   583.718750    -10.79854     0.020743    10.030545     1.363630     0.000000    21.000000    -90.54510     -4.70652    -76.75076     0.933580 
../raw/tomo200528_107_24.0_May31_00.18.51.tif            8    24.006300    -91.00000    35.200000     -3.00000 MotionCorr/job002/__/raw/tomo200528_107_24_0_May31_00_18_51.mrc MotionCorr/job002/__/raw/tomo200528_107_24_0_May31_00_18_51.star     1.573359     0.000000     1.573359 CtfFind/job003/__/raw/tomo200528_107_24_0_May31_00_18_51.ctf:mrc 25957.093750 25680.773438   276.320312    38.434002     0.016900     9.390298     1.013530     0.000000    24.010000    -90.54510    -17.35206    -66.76535     0.913474 
../raw/tomo200528_107_27.0_May31_00.19.56.tif            8    27.003500    -91.00000    41.800000     -3.00000 MotionCorr/job002/__/raw/tomo200528_107_27_0_May31_00_19_56.mrc MotionCorr/job002/__/raw/tomo200528_107_27_0_May31_00_19_56.star     1.622335     0.000000     1.622335 CtfFind/job003/__/raw/tomo200528_107_27_0_May31_00_19_56.ctf:mrc 26932.492188 26743.253906   189.238281    88.215157     0.023010     8.406552     2.891090     0.000000    27.000000    -90.54510     -8.77688    -84.11051     0.891007 
../raw/tomo200528_107_30.0_May31_00.20.18.tif            8    30.004100    -91.00000    44.000000     -3.00000 MotionCorr/job002/__/raw/tomo200528_107_30_0_May31_00_20_18.mrc MotionCorr/job002/__/raw/tomo200528_107_30_0_May31_00_20_18.star     2.250957     0.000000     2.250957 CtfFind/job003/__/raw/tomo200528_107_30_0_May31_00_20_18.ctf:mrc 35397.195312 34839.859375   557.335938    -62.36766     0.026163     5.254095     2.171230     0.000000    30.000000    -90.54510     -9.82508    -88.51878     0.866025 
../raw/tomo200528_107_33.0_May31_00.22.15.tif            8    33.002300    -91.00000    55.000000     -3.00000 MotionCorr/job002/__/raw/tomo200528_107_33_0_May31_00_22_15.mrc MotionCorr/job002/__/raw/tomo200528_107_33_0_May31_00_22_15.star     2.071795     0.000000     2.071795 CtfFind/job003/__/raw/tomo200528_107_33_0_May31_00_22_15.ctf:mrc 30971.498047 30903.699219    67.798828    -15.16932     0.026457    10.508190     1.621130     0.000000    33.000000    -90.54510     -6.12020   -108.94818     0.838671 
../raw/tomo200528_107_36.0_May31_00.22.36.tif            8    36.003400    -91.00000    57.200000     -3.00000 MotionCorr/job002/__/raw/tomo200528_107_36_0_May31_00_22_36.mrc MotionCorr/job002/__/raw/tomo200528_107_36_0_May31_00_22_36.star     2.559800     0.000000     2.559800 CtfFind/job003/__/raw/tomo200528_107_36_0_May31_00_22_36.ctf:mrc 29352.312500 28813.498047   538.814453    -66.51581     0.024554    14.711466     1.477750     0.000000    36.000000    -90.54510    -11.82492   -104.89333     0.809017 
../raw/tomo200528_107_39.0_May31_00.23.04.tif            8    39.002600    -91.00000    59.400000     -3.00000 MotionCorr/job002/__/raw/tomo200528_107_39_0_May31_00_23_04.mrc MotionCorr/job002/__/raw/tomo200528_107_39_0_May31_00_23_04.star     2.437858     0.000000     2.437858 CtfFind/job003/__/raw/tomo200528_107_39_0_May31_00_23_04.ctf:mrc 31977.171875 30433.412109  1543.759766    -85.98605     0.026984    12.432225     2.089010     0.000000    39.000000    -90.54510     -9.27857   -115.17182     0.777146 
../raw/tomo200528_107_42.0_May31_00.23.25.tif            8    42.001800    -91.00000    61.600000     -3.00000 MotionCorr/job002/__/raw/tomo200528_107_42_0_May31_00_23_25.mrc MotionCorr/job002/__/raw/tomo200528_107_42_0_May31_00_23_25.star     2.203855     0.000000     2.203855 CtfFind/job003/__/raw/tomo200528_107_42_0_May31_00_23_25.ctf:mrc 29368.339844 28876.535156   491.804688    36.837719     0.018514    12.980706     0.803030     0.000000    42.000000    -90.54510    -14.29541   -126.59849     0.743145 
../raw/tomo200528_107_45.0_May31_00.24.57.tif            8    45.001500    -91.00000    70.400000     -3.00000 MotionCorr/job002/__/raw/tomo200528_107_45_0_May31_00_24_57.mrc MotionCorr/job002/__/raw/tomo200528_107_45_0_May31_00_24_57.star     2.445997     0.000000     2.445997 CtfFind/job003/__/raw/tomo200528_107_45_0_May31_00_24_57.ctf:mrc 27901.367188 27063.689453   837.677734     -8.03546     0.034693    10.263814     0.812400     0.000000    45.000000    -90.54510     -4.13070   -139.49229     0.707107 
../raw/tomo200528_107_48.0_May31_00.25.25.tif            8    48.001100    -91.00000    72.600000     -3.00000 MotionCorr/job002/__/raw/tomo200528_107_48_0_May31_00_25_25.mrc MotionCorr/job002/__/raw/tomo200528_107_48_0_May31_00_25_25.star     2.526043     0.000000     2.526043 CtfFind/job003/__/raw/tomo200528_107_48_0_May31_00_25_25.ctf:mrc 38656.203125 38004.054688   652.148438    21.104927     0.025635     7.742877     1.022170     0.000000    48.000000    -90.54510    -18.65885   -126.15542     0.669131 
../raw/tomo200528_107_51.0_May31_00.25.46.tif            8    51.000800    -91.00000    74.800000     -3.00000 MotionCorr/job002/__/raw/tomo200528_107_51_0_May31_00_25_46.mrc MotionCorr/job002/__/raw/tomo200528_107_51_0_May31_00_25_46.star     3.072073     0.000000     3.072073 CtfFind/job003/__/raw/tomo200528_107_51_0_May31_00_25_46.ctf:mrc 31305.253906 29558.539062  1746.714844    -47.77417     0.039377    11.033600     1.047970     0.000000    51.000000    -90.54510    -14.10404   -143.64368     0.629320 
 
