-51.000000 0
-48.000000 1
-45.000000 2
-42.000000 3
-39.000000 4
-36.000000 5
-33.000000 6
-30.000000 7
-27.000000 8
-24.000000 9
-21.000000 10
-18.000000 11
-15.000000 12
-12.000000 13
-9.000000 14
-6.000000 15
-3.000000 16
0.000000 17
3.000000 18
6.000000 19
9.000000 20
12.000000 21
15.000000 22
18.000000 23
21.000000 24
24.000000 25
27.000000 26
30.000000 27
33.000000 28
36.000000 29
39.000000 30
42.000000 31
45.000000 32
48.000000 33
51.000000 34
