1	1	-50.99	-50.99	  3083   2
2	2	-47.99	-47.99	  3084
3	3	-44.99	-44.99	  3147
4	4	-41.99	-41.99	  3083
5	5	-38.99	-38.99	  3164
6	6	-35.99	-35.99	  3087
7	7	-32.99	-32.99	  3116
8	8	-29.99	-29.99	  3071
9	9	-26.99	-26.99	  3089
10	10	-23.99	-23.99	  3078
11	11	-20.99	-20.99	  3082
12	12	-17.99	-17.99	  3007
13	13	-14.99	-14.99	  3047
14	14	-11.99	-11.99	  3089
15	15	-8.99	-8.99	  3055
16	16	-5.99	-5.99	  3133
17	17	-2.99	-2.99	  3206
18	18	 0.01	 0.01	  3323
19	19	 3.01	 3.01	  3233
20	20	 6.01	 6.01	  3166
21	21	 9.01	 9.01	  3181
22	22	12.01	12.01	  3167
23	23	15.00	15.00	  3183
24	24	18.00	18.00	  3194
25	25	21.01	21.01	  3257
26	26	24.01	24.01	  3281
27	27	27.00	27.00	  3274
28	28	30.01	30.01	  3249
29	29	33.00	33.00	  3326
30	30	36.00	36.00	  3319
31	31	39.00	39.00	  3338
32	32	42.00	42.00	  3309
33	33	45.00	45.00	  3326
34	34	48.00	48.00	  3274
35	35	51.00	51.00	  3354