0.001141 0
-2.99511 1
-5.99623 2
-8.99541 3
-11.9941 4
3.00373 5
6.00486 6
9.00208 7
12.0017 8
-14.9938 9
-17.9954 10
-20.9931 11
-23.9932 12
15.0024 13
18.002 14
21.0032 15
24.0019 16
-26.9958 17
-29.9931 18
-32.9922 19
-35.9938 20
27.002 21
30.0017 22
33.0013 23
36.0034 24
