-51.00000 -51.000000
-48.00000 -48.000000
-45.00000 -45.000000
-42.00000 -42.000000
-39.00000 -39.000000
-36.00000 -36.000000
-33.00000 -33.000000
-30.00000 -30.000000
-27.00000 -27.000000
-24.00000 -24.000000
-21.00000 -21.000000
-18.00000 -18.000000
-15.00000 -15.000000
-12.00000 -12.000000
-9.000000 -9.000000
-6.000000 -6.000000
-3.000000 -3.000000
0.000000   0.000000
3.000000   3.000000
6.000000   6.000000
9.000000   9.000000
12.000000 12.000000
15.000000 15.000000
18.000000 18.000000
21.000000 21.000000
24.000000 24.000000
27.000000 27.000000
30.000000 30.000000
33.000000 33.000000
36.000000 36.000000
39.000000 39.000000
42.000000 42.000000
45.000000 45.000000
48.000000 48.000000
51.000000 51.000000
