-51.000000
-48.000000
-45.000000
-42.000000
-39.000000
-36.000000
-33.000000
-30.000000
-27.000000
-24.000000
-21.000000
-18.000000
-15.000000
-12.000000
-9.000000
-6.000000
-3.000000
0.000000
3.000000
6.000000
9.000000
12.000000
15.000000
18.000000
21.000000
24.000000
27.000000
30.000000
33.000000
36.000000
39.000000
42.000000
45.000000
48.000000
51.000000
